#ID=Generated by ISIscan!
#SAMPLE_NUMBERS_PRESENT=Y
#NX_VARIABLES=1050
#NY_VARIABLES=4
#FIRST_WAVELENGTH=400.000000
#LAST_WAVELENGTH=1098.000000
#WAVELENGTH_INCREMENT=2.000000
#FIRST_WAVELENGTH=1100.000000
#LAST_WAVELENGTH=2498.000000
#WAVELENGTH_INCREMENT=2.000000
#YNAMEn1=BC
#YNAMEn2=CP
#YNAMEn3=DMD
#YNAMEn4=WSC
Sample1  0.3823448 0.4024848 0.4219185 0.4408453 0.4592559 0.4767690 0.4927882 0.5068558 
0.5195493 0.5316653 0.5429785 0.5530558 0.5625075 0.5718349 0.5804428 0.5878814 
0.5942904 0.5998763 0.6048665 0.6092504 0.6129682 0.6158258 0.6178795 0.6192705 
0.6199652 0.6205075 0.6210172 0.6210885 0.6205121 0.6194701 0.6181698 0.6163721 
0.6138434 0.6108624 0.6077451 0.6044648 0.6008834 0.5971909 0.5936767 0.5901325 
0.5863466 0.5826062 0.5792546 0.5760202 0.5726182 0.5692022 0.5657574 0.5624269 
0.5596840 0.5576161 0.5555591 0.5532913 0.5509285 0.5485179 0.5462999 0.5445608 
0.5430014 0.5413040 0.5395886 0.5379984 0.5368286 0.5369291 0.5383302 0.5402858 
0.5427620 0.5456385 0.5489509 0.5527843 0.5569014 0.5607358 0.5642187 0.5674761 
0.5701927 0.5722811 0.5739211 0.5750605 0.5756429 0.5760036 0.5762187 0.5762664 
0.5762903 0.5764048 0.5764295 0.5764716 0.5767027 0.5769929 0.5773503 0.5778523 
0.5786017 0.5796565 0.5810891 0.5830445 0.5853581 0.5881739 0.5917349 0.5959616 
0.6007140 0.6059896 0.6119304 0.6182460 0.6245495 0.6306932 0.6366165 0.6421692 
0.6471523 0.6512974 0.6543102 0.6562785 0.6571051 0.6570137 0.6563585 0.6556793 
0.6553934 0.6561138 0.6579463 0.6610387 0.6652045 0.6702318 0.6761866 0.6826272 
0.6895396 0.6968639 0.7046580 0.7128991 0.7214391 0.7303311 0.7394209 0.7486920 
0.7581510 0.7675852 0.7766142 0.7848821 0.7919837 0.7977210 0.8019040 0.8040155 
0.8040131 0.8010025 0.7951794 0.7866302 0.7755439 0.7628866 0.7483050 0.7332776 
0.7176670 0.7019506 0.6861461 0.6695237 0.6523528 0.6338962 0.6144674 0.5940607 
0.5728135 0.5511667 0.5293220 0.5079068 0.4872418 0.4677163 0.4495270 0.4327533 
0.4173642 0.4032726 0.3903381 0.3784248 0.3673773 0.3570763 0.3474720 0.3384727 
0.3300680 0.3222514 0.3150072 0.3083568 0.3022442 0.2966536 0.2914985 0.2867491 
0.2823184 0.2781362 0.2741350 0.2702661 0.2664630 0.2627197 0.2590251 0.2553824 
0.2517921 0.2482732 0.2448448 0.2415339 0.2383407 0.2352770 0.2323349 0.2294967 
0.2267672 0.2241269 0.2215635 0.2190635 0.2166353 0.2142912 0.2120362 0.2098784 
0.2077995 0.2057982 0.2038519 0.2019506 0.2000971 0.1982755 0.1964715 0.1946909 
0.1929324 0.1911977 0.1894892 0.1878020 0.1861285 0.1844707 0.1828440 0.1812295 
0.1796282 0.1780575 0.1765117 0.1749800 0.1734662 0.1719806 0.1705217 0.1690833 
0.1676630 0.1662604 0.1648800 0.1635202 0.1621780 0.1608559 0.1595511 0.1582611 
0.1569917 0.1557562 0.1545270 0.1533128 0.1521151 0.1509333 0.1497602 0.1485934 
0.1474481 0.1463274 0.1452269 0.1441373 0.1430548 0.1419793 0.1409146 0.1398665 
0.1388285 0.1377948 0.1367638 0.1357419 0.1347283 0.1337250 0.1327265 0.1317368 
0.1307465 0.1297561 0.1287675 0.1277845 0.1268127 0.1258415 0.1248808 0.1239303 
0.1229878 0.1220597 0.1211442 0.1202186 0.1192819 0.1183608 0.1174703 0.1166035 
0.1157532 0.1149236 0.1141131 0.1133193 0.1125474 0.1118026 0.1110810 0.1103809 
0.1097007 0.1090489 0.1084228 0.1078242 0.1072448 0.1066889 0.1061504 0.1056259 
0.1051181 0.1046221 0.1041305 0.1036348 0.1031301 0.1026182 0.1021045 0.1015904 
0.1010737 0.1005576 0.1000370 0.0995145 0.0989955 0.0984738 0.0979599 0.0974793 
0.0970063 0.0965102 0.0960089 0.0955138 0.0950190 0.0945223 0.0940327 0.0935561 
0.0930879 0.0926312 0.0921857 0.0917429 0.0913074 0.0908831 0.0904750 0.0900735 
0.0896778 0.0892921 0.0889182 0.0885655 0.0882173 0.0878762 0.0875525 0.0872447 
0.0869340 0.0866310 0.0863463 0.0860670 0.0857894 0.0855276 0.0852843 0.0850466 
0.0848231 0.0846123 0.0844120 0.0842205 0.0840488 0.0838913 0.0837353 0.0835875 
0.0834562 0.0833427 0.0832416 0.0831455 0.0830684 0.0830505 0.0796275 0.0796224 
0.0796001 0.0795822 0.0795887 0.0796240 0.0796728 0.0797376 0.0798335 0.0799627 
0.0801120 0.0803066 0.0805512 0.0808546 0.0812100 0.0816299 0.0821033 0.0826323 
0.0832038 0.0838194 0.0844719 0.0851563 0.0858815 0.0866515 0.0874698 0.0883358 
0.0892516 0.0902055 0.0911962 0.0922097 0.0932297 0.0942311 0.0952007 0.0961419 
0.0970505 0.0979343 0.0988076 0.0996856 0.1005809 0.1014984 0.1024277 0.1033445 
0.1042208 0.1050345 0.1057592 0.1063936 0.1069378 0.1074002 0.1077908 0.1081194 
0.1083985 0.1086344 0.1088294 0.1089707 0.1090526 0.1090563 0.1089797 0.1088083 
0.1085588 0.1082271 0.1078351 0.1073960 0.1069443 0.1064934 0.1060525 0.1056390 
0.1052542 0.1049021 0.1045767 0.1042823 0.1040044 0.1037488 0.1035204 0.1033247 
0.1031474 0.1029936 0.1028628 0.1027640 0.1026928 0.1026467 0.1026195 0.1026188 
0.1026353 0.1026624 0.1026911 0.1027205 0.1027427 0.1027394 0.1027119 0.1026635 
0.1026032 0.1025290 0.1024535 0.1023796 0.1023079 0.1022486 0.1022045 0.1021797 
0.1021803 0.1022214 0.1022897 0.1023837 0.1025051 0.1026641 0.1028576 0.1030945 
0.1033669 0.1036898 0.1040599 0.1044807 0.1049519 0.1054869 0.1060815 0.1067449 
0.1074698 0.1082675 0.1091379 0.1100797 0.1110911 0.1121745 0.1133246 0.1145488 
0.1158433 0.1172024 0.1186227 0.1200931 0.1216062 0.1231460 0.1246977 0.1262509 
0.1277702 0.1292410 0.1306458 0.1319868 0.1332268 0.1343852 0.1354650 0.1365107 
0.1375547 0.1386510 0.1398484 0.1411722 0.1426594 0.1443211 0.1461692 0.1482004 
0.1504188 0.1528360 0.1554579 0.1583272 0.1614493 0.1648631 0.1685264 0.1724544 
0.1765707 0.1808639 0.1852549 0.1897062 0.1941779 0.1986338 0.2030341 0.2073411 
0.2115069 0.2154924 0.2192593 0.2228033 0.2260671 0.2290807 0.2317984 0.2342872 
0.2365083 0.2385200 0.2403107 0.2419223 0.2433648 0.2446759 0.2458764 0.2469660 
0.2479655 0.2488791 0.2497203 0.2504683 0.2511413 0.2517214 0.2522140 0.2526086 
0.2529089 0.2531261 0.2532629 0.2533289 0.2533354 0.2532977 0.2532046 0.2530681 
0.2528851 0.2526541 0.2523732 0.2520411 0.2516541 0.2512147 0.2507278 0.2502024 
0.2496543 0.2490681 0.2484175 0.2477168 0.2469960 0.2462583 0.2455145 0.2447831 
0.2440763 0.2433952 0.2427419 0.2421230 0.2415555 0.2410435 0.2405641 0.2401071 
0.2396943 0.2393439 0.2390189 0.2387041 0.2384041 0.2381225 0.2378541 0.2375953 
0.2373565 0.2371364 0.2369422 0.2367807 0.2366548 0.2365620 0.2364866 0.2364220 
0.2363631 0.2362945 0.2362033 0.2360806 0.2359081 0.2356955 0.2354316 0.2351108 
0.2347184 0.2342481 0.2337054 0.2330928 0.2324216 0.2316827 0.2308909 0.2300520 
0.2291797 0.2282835 0.2273644 0.2264342 0.2255030 0.2245777 0.2236566 0.2227425 
0.2218437 0.2209692 0.2201119 0.2192694 0.2184443 0.2176348 0.2168433 0.2160717 
0.2153215 0.2145987 0.2139041 0.2132474 0.2126321 0.2120671 0.2115502 0.2110818 
0.2106872 0.2103803 0.2101804 0.2100932 0.2101197 0.2102751 0.2105231 0.2108484 
0.2112369 0.2116785 0.2121844 0.2127633 0.2134378 0.2142220 0.2151296 0.2161883 
0.2173701 0.2186816 0.2201084 0.2216010 0.2231032 0.2245582 0.2259268 0.2271952 
0.2283914 0.2295212 0.2305946 0.2315996 0.2325078 0.2333336 0.2340952 0.2348180 
0.2355192 0.2362135 0.2369020 0.2375695 0.2382207 0.2388587 0.2394617 0.2399853 
0.2403571 0.2404483 0.2402427 0.2397737 0.2391498 0.2385034 0.2379377 0.2374945 
0.2371641 0.2369453 0.2368095 0.2367405 0.2367392 0.2367923 0.2368797 0.2369730 
0.2370335 0.2370039 0.2368445 0.2365350 0.2360698 0.2355256 0.2349559 0.2343952 
0.2338621 0.2333680 0.2329139 0.2324913 0.2320835 0.2316796 0.2312811 0.2308812 
0.2304707 0.2300478 0.2296112 0.2291641 0.2287053 0.2282333 0.2277639 0.2273200 
0.2269046 0.2265029 0.2261146 0.2257346 0.2253532 0.2249627 0.2245440 0.2240945 
0.2236217 0.2231219 0.2225989 0.2220621 0.2215132 0.2209481 0.2203694 0.2197907 
0.2192241 0.2186812 0.2181814 0.2177389 0.2173778 0.2171221 0.2169769 0.2169496 
0.2170390 0.2172481 0.2175940 0.2180922 0.2187521 0.2196044 0.2206934 0.2220463 
0.2236903 0.2256651 0.2279837 0.2306985 0.2339094 0.2376412 0.2419746 0.2470255 
0.2527775 0.2592468 0.2664406 0.2742694 0.2826641 0.2915607 0.3008591 0.3103879 
0.3198923 0.3291107 0.3379357 0.3462758 0.3539976 0.3611427 0.3676876 0.3735551 
0.3787490 0.3832859 0.3871506 0.3903167 0.3928520 0.3947878 0.3961049 0.3968935 
0.3971751 0.3969721 0.3963510 0.3953604 0.3940379 0.3924310 0.3906169 0.3886291 
0.3865055 0.3842863 0.3820018 0.3796826 0.3773443 0.3749939 0.3726469 0.3703234 
0.3680237 0.3657346 0.3634372 0.3611346 0.3588372 0.3565388 0.3542534 0.3519945 
0.3497662 0.3475830 0.3454526 0.3433943 0.3414254 0.3395526 0.3377972 0.3361855 
0.3347216 0.3334077 0.3322932 0.3313796 0.3306672 0.3301789 0.3299373 0.3299181 
0.3301318 0.3305970 0.3313537 0.3323798 0.3336745 0.3352200 0.3370384 0.3391008 
0.3413727 0.3438369 0.3464904 0.3493267 0.3523147 0.3554084 0.3585873 0.3618113 
0.3650399 0.3682135 0.3712556 0.3741345 0.3768328 0.3793232 0.3815953 0.3836691 
0.3855844 0.3873532 0.3890077 0.3905619 0.3920149 0.3933598 0.3946178 0.3957864 
0.3968545 0.3978422 0.3987646 0.3996460 0.4004774 0.4012502 0.4020003 0.4027244 
0.4034138 0.4040653 0.4046596 0.4051946 0.4056757 0.4061007 0.4064533 0.4067259 
0.4069278 0.4070487 0.4070927 0.4070684 0.4069586 0.4067695 0.4065323 0.4062574 
0.4059466 0.4056299 0.4053203 0.4049858 0.4046170 0.4042086 0.4037364 0.4031921 
0.4025829 0.4019054 0.4011957 0.4004935 0.3998099 0.3991378 0.3984642 0.3977823 
0.3970772 0.3963281 0.3955323 0.3946856 0.3937846 0.3928322 0.3918200 0.3907767 
0.3897249 0.3886625 0.3875733 0.3864541 0.3853046 0.3841317 0.3829461 0.3817598 
0.3805997 0.3794833 0.3784030 0.3773621 0.3763612 0.3754090 0.3745088 0.3736523 
0.3728441 0.3720815 0.3713555 0.3707047 0.3701569 0.3697284 0.3694443 0.3693261 
0.3694300 0.3698046 0.3704483 0.3713934 0.3726852 0.3743407 0.3763705 0.3787611 
0.3814902 0.3845617 0.3879477 0.3915911 0.3954582 0.3994894 0.4036239 0.4078126 
0.4120321 0.4162742 0.4204993 0.4246713 0.4287780 0.4327522 0.4365244 0.4399897 
0.4430338 0.4456170 0.4476962 0.4492797 0.4504151 0.4512120 0.4517559 0.4521223 
0.4524732 0.4529383 0.4535807 0.4544751 0.4556974 0.4572356 0.4590495 0.4610721 
0.4632158 0.4654392 0.4676557 0.4695857 0.4708971 0.4714155 0.4711498 0.4703750 
0.4695507 0.4689740 0.4687098 0.4687456 0.4689930 0.4693465 0.4697420 0.4701671 
0.4706574 0.4712266 0.4718559 0.4725160 0.4731649 0.4737889 0.4742916 0.4745034 
0.4743052 0.4737004 0.4727987 0.4718175 0.4709606 0.4702909 0.4698133 0.4695044 
0.4692719 0.4690725 0.4689029 0.4687604 0.4686835 0.4686967 0.4688146 0.4690045 
0.4692067 0.4694434 0.4697282 0.4700226 0.4703313 0.4707066 0.4711602 0.4716837 
0.4723446 0.4731821 0.4741754 0.4753211 0.4766331 0.4780521 0.4795574 0.4811579 
0.4828363 0.4845946 0.4865218 0.4886295 0.4908393 0.4931601 0.4956570 0.4983462 
0.5011985 0.5041730 0.5072808 0.5104740 0.5137412 0.5170498 0.5203617 0.5236833 
0.5270496 0.5304971 0.5339926 0.5374577 0.5409179 0.5444105 0.5479159 0.5513282 
0.5546027 0.5577869 0.5608968 0.5639116 0.5667850 0.5695906 0.5722343 0.5746832 
0.5769473 0.5790316 0.5809273 0.5825892 0.5839415 0.5849342 0.5856581 0.5861529 
0.5863597 0.5863233 
387.6545     156.8553     791.4891     156.2641     
Sample2  0.3660525 0.3880912 0.4094096 0.4300607 0.4499926 0.4688728 0.4862116 0.5016242 
0.5156981 0.5292460 0.5421383 0.5540140 0.5653163 0.5765742 0.5873319 0.5971881 
0.6061326 0.6142141 0.6216326 0.6284641 0.6347284 0.6401328 0.6444699 0.6476907 
0.6498224 0.6516590 0.6535242 0.6550183 0.6559583 0.6566381 0.6572325 0.6573133 
0.6565249 0.6551911 0.6537362 0.6521678 0.6501812 0.6478188 0.6454457 0.6429498 
0.6400857 0.6369911 0.6339245 0.6306407 0.6269269 0.6229975 0.6188387 0.6144816 
0.6103594 0.6066388 0.6027471 0.5984451 0.5937940 0.5887878 0.5837061 0.5789787 
0.5744088 0.5697216 0.5650989 0.5607781 0.5570997 0.5549442 0.5543960 0.5547497 
0.5559918 0.5580286 0.5608373 0.5644293 0.5685212 0.5725120 0.5762674 0.5798636 
0.5829662 0.5854681 0.5875582 0.5891780 0.5903364 0.5914305 0.5925652 0.5937296 
0.5951480 0.5969769 0.5990261 0.6013573 0.6041196 0.6071235 0.6103126 0.6137143 
0.6173643 0.6212548 0.6254357 0.6299968 0.6347477 0.6397970 0.6453705 0.6513519 
0.6575766 0.6640383 0.6709061 0.6779260 0.6847521 0.6912928 0.6975721 0.7035028 
0.7089487 0.7136882 0.7174889 0.7204260 0.7224054 0.7235789 0.7242609 0.7249213 
0.7259421 0.7279307 0.7310272 0.7354345 0.7410342 0.7476872 0.7554975 0.7640113 
0.7731679 0.7828286 0.7928995 0.8031790 0.8133513 0.8233641 0.8330281 0.8423758 
0.8515243 0.8604065 0.8688140 0.8765362 0.8832772 0.8889006 0.8932517 0.8958814 
0.8967786 0.8949797 0.8904673 0.8829820 0.8723050 0.8589624 0.8422233 0.8233321 
0.8021687 0.7794428 0.7555835 0.7303544 0.7044654 0.6775144 0.6500188 0.6220407 
0.5937202 0.5654639 0.5373798 0.5099933 0.4835562 0.4584082 0.4347307 0.4126088 
0.3920574 0.3730356 0.3554447 0.3391719 0.3240976 0.3101339 0.2972508 0.2853704 
0.2745011 0.2645796 0.2556112 0.2475690 0.2403584 0.2339693 0.2282390 0.2230821 
0.2183752 0.2139989 0.2098413 0.2058090 0.2018145 0.1978333 0.1938569 0.1898975 
0.1859725 0.1821302 0.1784159 0.1748480 0.1714427 0.1682267 0.1652225 0.1624226 
0.1598159 0.1573761 0.1550868 0.1529288 0.1508957 0.1489827 0.1471819 0.1454972 
0.1439060 0.1423992 0.1409487 0.1395378 0.1381684 0.1368177 0.1354783 0.1341515 
0.1328364 0.1315320 0.1302453 0.1289649 0.1276802 0.1263941 0.1251274 0.1238741 
0.1226181 0.1213708 0.1201480 0.1189466 0.1177622 0.1166019 0.1154694 0.1143543 
0.1132574 0.1121852 0.1111363 0.1101072 0.1090961 0.1081178 0.1071678 0.1062422 
0.1053451 0.1044742 0.1036273 0.1027955 0.1019883 0.1012050 0.1004372 0.0996809 
0.0989421 0.0982241 0.0975186 0.0968226 0.0961375 0.0954571 0.0947838 0.0941177 
0.0934569 0.0927968 0.0921354 0.0914741 0.0908105 0.0901536 0.0894990 0.0888412 
0.0881747 0.0875013 0.0868221 0.0861391 0.0854597 0.0847784 0.0841067 0.0834402 
0.0827805 0.0821301 0.0814884 0.0808349 0.0801644 0.0795070 0.0788835 0.0782810 
0.0776982 0.0771359 0.0766000 0.0760860 0.0756019 0.0751534 0.0747372 0.0743512 
0.0739983 0.0736870 0.0734139 0.0731771 0.0729759 0.0728006 0.0726586 0.0725318 
0.0724113 0.0722950 0.0721765 0.0720418 0.0718884 0.0717198 0.0715363 0.0713362 
0.0711142 0.0708757 0.0706221 0.0703634 0.0700952 0.0698157 0.0695432 0.0692907 
0.0690368 0.0687588 0.0684611 0.0681645 0.0678648 0.0675575 0.0672545 0.0669504 
0.0666506 0.0663541 0.0660667 0.0657804 0.0655011 0.0652312 0.0649659 0.0647081 
0.0644557 0.0642123 0.0639798 0.0637652 0.0635556 0.0633520 0.0631597 0.0629788 
0.0627941 0.0626145 0.0624478 0.0622852 0.0621241 0.0619779 0.0618483 0.0617241 
0.0616089 0.0615056 0.0614143 0.0613363 0.0612768 0.0612247 0.0611814 0.0611462 
0.0611270 0.0611274 0.0611460 0.0611684 0.0611955 0.0612510 0.0590449 0.0591316 
0.0592386 0.0593614 0.0595156 0.0596997 0.0599004 0.0601212 0.0603676 0.0606559 
0.0609898 0.0613849 0.0618413 0.0623780 0.0629914 0.0636960 0.0644782 0.0653333 
0.0662500 0.0672242 0.0682402 0.0692906 0.0703794 0.0715141 0.0726988 0.0739336 
0.0752269 0.0765679 0.0779560 0.0793767 0.0808116 0.0822281 0.0836044 0.0849405 
0.0862334 0.0874994 0.0887592 0.0900247 0.0913071 0.0926106 0.0939210 0.0952085 
0.0964394 0.0975844 0.0986120 0.0995125 0.1002806 0.1009290 0.1014736 0.1019268 
0.1023063 0.1026197 0.1028665 0.1030371 0.1031316 0.1031330 0.1030427 0.1028467 
0.1025594 0.1021842 0.1017473 0.1012610 0.1007587 0.1002637 0.0997853 0.0993368 
0.0989173 0.0985335 0.0981815 0.0978637 0.0975696 0.0973055 0.0970714 0.0968692 
0.0966938 0.0965568 0.0964506 0.0963804 0.0963409 0.0963352 0.0963576 0.0964102 
0.0964816 0.0965641 0.0966446 0.0967159 0.0967702 0.0967931 0.0967888 0.0967578 
0.0967064 0.0966343 0.0965507 0.0964641 0.0963856 0.0963204 0.0962724 0.0962500 
0.0962558 0.0962988 0.0963688 0.0964783 0.0966192 0.0967984 0.0970204 0.0972976 
0.0976206 0.0980003 0.0984293 0.0989144 0.0994577 0.1000742 0.1007594 0.1015203 
0.1023533 0.1032690 0.1042672 0.1053555 0.1065300 0.1077905 0.1091337 0.1105638 
0.1120811 0.1136782 0.1153488 0.1170857 0.1188769 0.1207016 0.1225357 0.1243601 
0.1261419 0.1278628 0.1294897 0.1310214 0.1324297 0.1337389 0.1349439 0.1360825 
0.1371911 0.1383236 0.1395303 0.1408478 0.1423219 0.1439564 0.1457610 0.1477412 
0.1499082 0.1522831 0.1548800 0.1577441 0.1608784 0.1643300 0.1680703 0.1721189 
0.1764035 0.1809158 0.1855813 0.1903650 0.1952196 0.2000979 0.2049544 0.2097438 
0.2144101 0.2189107 0.2231956 0.2272529 0.2310206 0.2345158 0.2376854 0.2405964 
0.2432052 0.2455729 0.2476895 0.2495923 0.2513027 0.2528571 0.2542648 0.2555373 
0.2567073 0.2577742 0.2587561 0.2596380 0.2604339 0.2611303 0.2617407 0.2622515 
0.2626637 0.2629893 0.2632387 0.2634212 0.2635378 0.2636035 0.2636100 0.2635719 
0.2634869 0.2633511 0.2631618 0.2629208 0.2626263 0.2622731 0.2618612 0.2614050 
0.2609262 0.2604047 0.2598157 0.2591838 0.2585313 0.2578499 0.2571543 0.2564613 
0.2557757 0.2551063 0.2544606 0.2538443 0.2532762 0.2527595 0.2522703 0.2517982 
0.2513767 0.2510234 0.2507021 0.2504072 0.2501392 0.2498859 0.2496501 0.2494375 
0.2492511 0.2490943 0.2489720 0.2488842 0.2488327 0.2488132 0.2488087 0.2488152 
0.2488197 0.2488026 0.2487561 0.2486700 0.2485304 0.2483394 0.2480859 0.2477662 
0.2473640 0.2468834 0.2463299 0.2456974 0.2449958 0.2442128 0.2433591 0.2424384 
0.2414621 0.2404437 0.2393891 0.2383137 0.2372206 0.2361183 0.2350170 0.2339223 
0.2328442 0.2317895 0.2307546 0.2297349 0.2287291 0.2277306 0.2267496 0.2257962 
0.2248684 0.2239699 0.2231046 0.2222783 0.2214976 0.2207659 0.2200848 0.2194679 
0.2189294 0.2184642 0.2181015 0.2178631 0.2177454 0.2177588 0.2178750 0.2180794 
0.2183631 0.2187328 0.2192002 0.2197600 0.2204380 0.2212557 0.2222194 0.2233554 
0.2246414 0.2260858 0.2276716 0.2293322 0.2310019 0.2326268 0.2341593 0.2355722 
0.2368797 0.2380782 0.2391843 0.2401891 0.2410585 0.2418112 0.2424681 0.2430581 
0.2436098 0.2441435 0.2446698 0.2451914 0.2457217 0.2462694 0.2468200 0.2473185 
0.2476938 0.2478299 0.2477194 0.2473791 0.2468947 0.2463772 0.2459097 0.2455376 
0.2452631 0.2450730 0.2449336 0.2448422 0.2447942 0.2447720 0.2447696 0.2447589 
0.2447049 0.2445622 0.2442982 0.2439080 0.2433943 0.2428101 0.2421851 0.2415586 
0.2409557 0.2403743 0.2398135 0.2392806 0.2387622 0.2382452 0.2377389 0.2372370 
0.2367185 0.2361796 0.2356295 0.2350722 0.2345055 0.2339358 0.2333793 0.2328514 
0.2323527 0.2318751 0.2314180 0.2309716 0.2305242 0.2300653 0.2295816 0.2290732 
0.2285366 0.2279674 0.2273737 0.2267547 0.2261085 0.2254464 0.2247731 0.2240904 
0.2234127 0.2227571 0.2221480 0.2216046 0.2211391 0.2207668 0.2204954 0.2203413 
0.2203104 0.2203940 0.2206056 0.2209626 0.2214716 0.2221564 0.2230530 0.2241904 
0.2255983 0.2273068 0.2293211 0.2316895 0.2345198 0.2378478 0.2417402 0.2463064 
0.2515446 0.2574789 0.2641317 0.2714415 0.2793486 0.2878028 0.2967292 0.3059614 
0.3152379 0.3242964 0.3330391 0.3413734 0.3491492 0.3564003 0.3630977 0.3691585 
0.3745775 0.3793654 0.3834988 0.3869315 0.3897459 0.3919816 0.3935876 0.3946496 
0.3952000 0.3952515 0.3948597 0.3940723 0.3929322 0.3914836 0.3898088 0.3879463 
0.3859296 0.3837996 0.3815917 0.3793463 0.3770768 0.3748050 0.3725469 0.3702960 
0.3680609 0.3658401 0.3636185 0.3613915 0.3591681 0.3569503 0.3547365 0.3525446 
0.3503849 0.3482725 0.3462270 0.3442692 0.3424073 0.3406469 0.3390243 0.3375613 
0.3362679 0.3351634 0.3342782 0.3336055 0.3331561 0.3329532 0.3330312 0.3333643 
0.3339534 0.3348285 0.3360270 0.3375178 0.3392959 0.3413576 0.3437133 0.3463342 
0.3491977 0.3523003 0.3556094 0.3590836 0.3627178 0.3664727 0.3703114 0.3741834 
0.3780393 0.3818083 0.3854159 0.3888191 0.3919776 0.3948953 0.3975721 0.4000101 
0.4022511 0.4043320 0.4062815 0.4080951 0.4097961 0.4114056 0.4129263 0.4143487 
0.4156571 0.4168614 0.4179803 0.4190257 0.4199985 0.4208981 0.4217446 0.4225416 
0.4232724 0.4239351 0.4245411 0.4250891 0.4255711 0.4259780 0.4262957 0.4265274 
0.4266872 0.4267746 0.4267818 0.4266916 0.4265189 0.4262778 0.4259756 0.4256260 
0.4252329 0.4248299 0.4244235 0.4240151 0.4235891 0.4231164 0.4225892 0.4219771 
0.4212547 0.4204596 0.4196352 0.4188139 0.4180052 0.4171982 0.4164028 0.4156171 
0.4148031 0.4139415 0.4130100 0.4120127 0.4109572 0.4098415 0.4086632 0.4074557 
0.4062271 0.4049708 0.4036783 0.4023388 0.4009754 0.3995936 0.3981915 0.3967863 
0.3954195 0.3940993 0.3928212 0.3915969 0.3904382 0.3893168 0.3882172 0.3871652 
0.3861622 0.3852102 0.3843107 0.3834834 0.3827582 0.3821477 0.3816718 0.3813609 
0.3812733 0.3814582 0.3819293 0.3827108 0.3838389 0.3853441 0.3872611 0.3895863 
0.3923098 0.3954116 0.3988718 0.4026254 0.4066258 0.4108608 0.4152839 0.4198562 
0.4245286 0.4292457 0.4340193 0.4388345 0.4435974 0.4482274 0.4526411 0.4567154 
0.4603527 0.4634437 0.4658903 0.4676679 0.4688492 0.4695624 0.4699297 0.4700405 
0.4700252 0.4700667 0.4702472 0.4706623 0.4713958 0.4724450 0.4737716 0.4753401 
0.4770963 0.4789426 0.4807763 0.4823714 0.4834461 0.4838792 0.4837231 0.4832492 
0.4827852 0.4824837 0.4824070 0.4825217 0.4827209 0.4829937 0.4832973 0.4836176 
0.4840036 0.4844550 0.4849218 0.4853759 0.4858460 0.4863091 0.4866125 0.4866056 
0.4862292 0.4855295 0.4846101 0.4836791 0.4828956 0.4822361 0.4817039 0.4813194 
0.4809774 0.4806252 0.4803358 0.4800918 0.4799077 0.4797856 0.4797239 0.4797212 
0.4797531 0.4798635 0.4800557 0.4802961 0.4805538 0.4808662 0.4813327 0.4819326 
0.4826629 0.4835428 0.4846030 0.4857846 0.4870593 0.4884703 0.4900272 0.4917080 
0.4935119 0.4954489 0.4974744 0.4996594 0.5019944 0.5044896 0.5071299 0.5098837 
0.5128250 0.5159148 0.5191323 0.5224215 0.5257668 0.5291955 0.5327042 0.5362592 
0.5398526 0.5434723 0.5470959 0.5507441 0.5544133 0.5580917 0.5617694 0.5653795 
0.5688691 0.5722403 0.5755385 0.5786861 0.5816682 0.5845891 0.5873904 0.5900629 
0.5925637 0.5947708 0.5967025 0.5983720 0.5997644 0.6008745 0.6016695 0.6021805 
0.6023577 0.6022856 
358.2094     156.0314     855.3429     263.9865     
Sample3  0.3728233 0.3937539 0.4140862 0.4338885 0.4530463 0.4711476 0.4875680 0.5019222 
0.5148624 0.5271975 0.5387781 0.5492384 0.5590771 0.5688516 0.5780689 0.5862683 
0.5934542 0.5997826 0.6054816 0.6105551 0.6149335 0.6183495 0.6207954 0.6224164 
0.6232387 0.6238780 0.6245387 0.6248372 0.6245641 0.6239066 0.6231105 0.6219625 
0.6201861 0.6180423 0.6157986 0.6133680 0.6105508 0.6075349 0.6046075 0.6015012 
0.5979104 0.5941106 0.5904701 0.5867844 0.5828023 0.5787032 0.5744418 0.5701047 
0.5661759 0.5627595 0.5591940 0.5552666 0.5510777 0.5466783 0.5423166 0.5383221 
0.5344653 0.5304679 0.5264935 0.5227630 0.5196453 0.5180325 0.5180000 0.5187816 
0.5202875 0.5224475 0.5252991 0.5288780 0.5328736 0.5366886 0.5402166 0.5435753 
0.5464710 0.5488436 0.5508991 0.5525695 0.5538490 0.5550960 0.5563778 0.5576791 
0.5591885 0.5610573 0.5631000 0.5654014 0.5681079 0.5710176 0.5740858 0.5773507 
0.5808553 0.5845917 0.5886157 0.5930142 0.5975611 0.6023583 0.6076048 0.6131678 
0.6188774 0.6247431 0.6309342 0.6372151 0.6432348 0.6489258 0.6543213 0.6593418 
0.6638740 0.6677278 0.6706702 0.6727970 0.6740234 0.6745144 0.6745740 0.6747015 
0.6752844 0.6769013 0.6796243 0.6836061 0.6887140 0.6947607 0.7018355 0.7094820 
0.7176422 0.7262086 0.7351217 0.7442475 0.7533284 0.7623712 0.7712111 0.7798899 
0.7885293 0.7970403 0.8051555 0.8126051 0.8190535 0.8243377 0.8282969 0.8304332 
0.8306851 0.8280740 0.8226368 0.8141728 0.8025370 0.7883421 0.7709149 0.7515213 
0.7300516 0.7072443 0.6835512 0.6587548 0.6336156 0.6078316 0.5820373 0.5564130 
0.5310962 0.5064472 0.4824905 0.4596256 0.4379590 0.4176955 0.3988827 0.3815088 
0.3655259 0.3508540 0.3373760 0.3249942 0.3136000 0.3031172 0.2935183 0.2847244 
0.2767024 0.2694117 0.2628406 0.2569597 0.2517021 0.2470159 0.2427677 0.2389191 
0.2353624 0.2320016 0.2287526 0.2255549 0.2223317 0.2190817 0.2158107 0.2125291 
0.2092721 0.2060776 0.2029890 0.2000251 0.1971875 0.1944970 0.1919533 0.1895485 
0.1872764 0.1851183 0.1830557 0.1810747 0.1791762 0.1773668 0.1756403 0.1740063 
0.1724547 0.1709823 0.1695574 0.1681659 0.1668032 0.1654538 0.1641140 0.1627801 
0.1614562 0.1601394 0.1588368 0.1575428 0.1562443 0.1549466 0.1536728 0.1524101 
0.1511491 0.1498915 0.1486526 0.1474343 0.1462363 0.1450574 0.1438930 0.1427417 
0.1416052 0.1404923 0.1394001 0.1383235 0.1372614 0.1362211 0.1351988 0.1341995 
0.1332210 0.1322644 0.1313215 0.1303915 0.1294737 0.1285737 0.1276862 0.1268089 
0.1259471 0.1251071 0.1242823 0.1234657 0.1226543 0.1218498 0.1210563 0.1202777 
0.1195047 0.1187332 0.1179678 0.1172094 0.1164521 0.1157008 0.1149545 0.1142165 
0.1134737 0.1127264 0.1119801 0.1112387 0.1105002 0.1097602 0.1090303 0.1083083 
0.1075933 0.1068894 0.1061982 0.1054974 0.1047814 0.1040805 0.1034086 0.1027559 
0.1021225 0.1015099 0.1009189 0.1003456 0.0997958 0.0992784 0.0987866 0.0983208 
0.0978813 0.0974759 0.0970990 0.0967552 0.0964368 0.0961432 0.0958736 0.0956170 
0.0953698 0.0951274 0.0948867 0.0946395 0.0943777 0.0941034 0.0938152 0.0935114 
0.0931934 0.0928626 0.0925247 0.0921824 0.0918317 0.0914709 0.0911166 0.0907852 
0.0904562 0.0901031 0.0897332 0.0893672 0.0890002 0.0886291 0.0882630 0.0879025 
0.0875488 0.0872020 0.0868640 0.0865275 0.0861979 0.0858779 0.0855678 0.0852655 
0.0849674 0.0846789 0.0844005 0.0841396 0.0838824 0.0836318 0.0833955 0.0831722 
0.0829440 0.0827222 0.0825149 0.0823101 0.0821040 0.0819115 0.0817363 0.0815657 
0.0814038 0.0812537 0.0811142 0.0809830 0.0808716 0.0807732 0.0806757 0.0805847 
0.0805089 0.0804520 0.0804095 0.0803714 0.0803497 0.0803769 0.0775165 0.0775519 
0.0775841 0.0776249 0.0776872 0.0777751 0.0778822 0.0780125 0.0781717 0.0783592 
0.0785695 0.0788334 0.0791511 0.0795313 0.0799671 0.0804717 0.0810347 0.0816589 
0.0823349 0.0830592 0.0838270 0.0846375 0.0854906 0.0863863 0.0873256 0.0883136 
0.0893624 0.0904587 0.0915987 0.0927651 0.0939421 0.0951053 0.0962395 0.0973500 
0.0984337 0.0995007 0.1005645 0.1016345 0.1027231 0.1038336 0.1049574 0.1060689 
0.1071322 0.1081215 0.1090124 0.1097956 0.1104667 0.1110367 0.1115171 0.1119152 
0.1122449 0.1125052 0.1127038 0.1128374 0.1128973 0.1128625 0.1127372 0.1125090 
0.1121964 0.1118036 0.1113484 0.1108391 0.1103176 0.1098045 0.1093036 0.1088337 
0.1084003 0.1080064 0.1076431 0.1073072 0.1069890 0.1067039 0.1064506 0.1062316 
0.1060341 0.1058646 0.1057252 0.1056198 0.1055397 0.1054893 0.1054592 0.1054527 
0.1054628 0.1054839 0.1055033 0.1055127 0.1055111 0.1054838 0.1054317 0.1053582 
0.1052671 0.1051563 0.1050386 0.1049218 0.1048082 0.1047094 0.1046315 0.1045778 
0.1045466 0.1045526 0.1045905 0.1046647 0.1047724 0.1049187 0.1050989 0.1053270 
0.1056008 0.1059308 0.1063105 0.1067448 0.1072303 0.1077845 0.1084131 0.1091177 
0.1098902 0.1107432 0.1116775 0.1126941 0.1137897 0.1149712 0.1162338 0.1175745 
0.1189929 0.1204867 0.1220525 0.1236807 0.1253607 0.1270779 0.1288078 0.1305258 
0.1322028 0.1338264 0.1353627 0.1368083 0.1381378 0.1393760 0.1405151 0.1415996 
0.1426700 0.1437767 0.1449691 0.1462793 0.1477487 0.1493934 0.1512286 0.1532547 
0.1554799 0.1579254 0.1606002 0.1635453 0.1667732 0.1703348 0.1741933 0.1783639 
0.1827731 0.1874091 0.1921990 0.1971054 0.2020735 0.2070529 0.2119973 0.2168606 
0.2215869 0.2261373 0.2304641 0.2345480 0.2383311 0.2418404 0.2450166 0.2479168 
0.2505013 0.2528379 0.2549220 0.2567900 0.2584489 0.2599364 0.2612776 0.2624901 
0.2635914 0.2645753 0.2654688 0.2662656 0.2669781 0.2675822 0.2680893 0.2684917 
0.2687919 0.2690002 0.2691245 0.2691718 0.2691440 0.2690662 0.2689371 0.2687576 
0.2685205 0.2682356 0.2679030 0.2675200 0.2670864 0.2665998 0.2660627 0.2654877 
0.2648986 0.2642767 0.2635882 0.2628539 0.2621096 0.2613557 0.2605973 0.2598452 
0.2591197 0.2584294 0.2577722 0.2571556 0.2565969 0.2560975 0.2556404 0.2552086 
0.2548226 0.2545037 0.2542141 0.2539397 0.2536868 0.2534529 0.2532336 0.2530270 
0.2528413 0.2526771 0.2525394 0.2524294 0.2523442 0.2522739 0.2522154 0.2521672 
0.2521093 0.2520275 0.2519179 0.2517694 0.2515652 0.2513085 0.2509877 0.2506047 
0.2501461 0.2496046 0.2489827 0.2482813 0.2475187 0.2466930 0.2458122 0.2448832 
0.2439145 0.2429179 0.2419016 0.2408714 0.2398301 0.2387899 0.2377550 0.2367279 
0.2357055 0.2346976 0.2337144 0.2327507 0.2317987 0.2308580 0.2299383 0.2290424 
0.2281676 0.2273208 0.2265035 0.2257228 0.2249837 0.2242960 0.2236571 0.2230710 
0.2225527 0.2221094 0.2217769 0.2215549 0.2214384 0.2214537 0.2215736 0.2217803 
0.2220602 0.2224057 0.2228293 0.2233386 0.2239538 0.2246991 0.2255889 0.2266483 
0.2278529 0.2292171 0.2307333 0.2323419 0.2339685 0.2355587 0.2370701 0.2384690 
0.2397747 0.2409912 0.2421230 0.2431635 0.2440876 0.2449054 0.2456341 0.2463075 
0.2469516 0.2475833 0.2482153 0.2488443 0.2494755 0.2501214 0.2507663 0.2513512 
0.2518007 0.2519888 0.2518993 0.2515513 0.2510431 0.2505030 0.2500250 0.2496566 
0.2493913 0.2492190 0.2491176 0.2490762 0.2490880 0.2491354 0.2492020 0.2492656 
0.2492912 0.2492168 0.2489994 0.2486313 0.2481134 0.2475091 0.2468716 0.2462474 
0.2456497 0.2450755 0.2445273 0.2440068 0.2435017 0.2429957 0.2424851 0.2419655 
0.2414230 0.2408575 0.2402769 0.2396828 0.2390774 0.2384710 0.2378780 0.2373114 
0.2367713 0.2362489 0.2357485 0.2352644 0.2347854 0.2343026 0.2337965 0.2332661 
0.2327141 0.2321320 0.2315236 0.2308979 0.2302587 0.2296069 0.2289394 0.2282627 
0.2275943 0.2269479 0.2263470 0.2258121 0.2253612 0.2250156 0.2247779 0.2246588 
0.2246644 0.2247903 0.2250545 0.2254694 0.2260413 0.2267997 0.2277862 0.2290302 
0.2305616 0.2324138 0.2345985 0.2371665 0.2402208 0.2437936 0.2479588 0.2528346 
0.2584254 0.2647507 0.2718170 0.2795621 0.2879354 0.2968739 0.3062792 0.3159699 
0.3256798 0.3351471 0.3442597 0.3529175 0.3609775 0.3684744 0.3753721 0.3815794 
0.3871040 0.3919590 0.3961177 0.3995491 0.4023216 0.4044714 0.4059636 0.4068760 
0.4072448 0.4070935 0.4064842 0.4054646 0.4040827 0.4023977 0.4004888 0.3983847 
0.3961282 0.3937726 0.3913492 0.3888857 0.3864070 0.3839296 0.3814612 0.3790115 
0.3765812 0.3741523 0.3717284 0.3693194 0.3669211 0.3645325 0.3621571 0.3598038 
0.3574888 0.3552354 0.3530498 0.3509545 0.3489757 0.3471175 0.3454064 0.3438709 
0.3425233 0.3413668 0.3404276 0.3397066 0.3392207 0.3389939 0.3390506 0.3393718 
0.3399593 0.3408207 0.3420103 0.3435024 0.3452804 0.3473406 0.3496935 0.3522970 
0.3551282 0.3581728 0.3614204 0.3648360 0.3683917 0.3720638 0.3758131 0.3795765 
0.3833036 0.3869541 0.3904786 0.3938301 0.3969704 0.3998739 0.4025334 0.4049745 
0.4072245 0.4093036 0.4112567 0.4130788 0.4147750 0.4163631 0.4178413 0.4191837 
0.4204053 0.4215430 0.4226004 0.4235939 0.4245185 0.4253772 0.4261820 0.4269180 
0.4275928 0.4282226 0.4287938 0.4292808 0.4296911 0.4300293 0.4302728 0.4304174 
0.4304776 0.4304673 0.4303764 0.4302101 0.4299602 0.4296234 0.4292176 0.4287657 
0.4282726 0.4277652 0.4272409 0.4266912 0.4261051 0.4254676 0.4247791 0.4240207 
0.4231912 0.4222990 0.4213714 0.4204445 0.4195322 0.4186383 0.4177667 0.4169021 
0.4160078 0.4150569 0.4140553 0.4129935 0.4118627 0.4106784 0.4094591 0.4082154 
0.4069588 0.4056877 0.4043757 0.4030341 0.4016761 0.4002999 0.3989188 0.3975510 
0.3962155 0.3949023 0.3936359 0.3924242 0.3912438 0.3901080 0.3890279 0.3880083 
0.3870386 0.3861191 0.3852570 0.3844805 0.3838303 0.3833105 0.3829285 0.3827264 
0.3827538 0.3830500 0.3836547 0.3845766 0.3858506 0.3875156 0.3895774 0.3920190 
0.3948703 0.3981184 0.4017077 0.4055951 0.4097585 0.4141398 0.4186731 0.4233531 
0.4281134 0.4329103 0.4377347 0.4425512 0.4472941 0.4518606 0.4561864 0.4601643 
0.4637007 0.4667376 0.4692228 0.4711522 0.4725572 0.4735095 0.4740957 0.4744152 
0.4745649 0.4746521 0.4748238 0.4752182 0.4759225 0.4770002 0.4783798 0.4799804 
0.4817880 0.4837608 0.4858076 0.4876568 0.4889444 0.4894671 0.4893009 0.4887495 
0.4881315 0.4876887 0.4875398 0.4876357 0.4878399 0.4881102 0.4884337 0.4887616 
0.4891015 0.4894709 0.4898686 0.4903213 0.4908190 0.4913118 0.4916889 0.4917500 
0.4914011 0.4906951 0.4897400 0.4887363 0.4878778 0.4872275 0.4867732 0.4864747 
0.4862456 0.4860464 0.4858721 0.4857399 0.4856537 0.4856473 0.4857529 0.4859533 
0.4862108 0.4864808 0.4867219 0.4869766 0.4872980 0.4876876 0.4881690 0.4887451 
0.4894879 0.4904375 0.4915478 0.4927976 0.4942320 0.4957921 0.4974346 0.4991822 
0.5010292 0.5030073 0.5051344 0.5074032 0.5098031 0.5123481 0.5150257 0.5178503 
0.5209006 0.5241055 0.5274011 0.5307772 0.5342513 0.5378017 0.5413792 0.5449283 
0.5485403 0.5522104 0.5558805 0.5595927 0.5633206 0.5670414 0.5707877 0.5744081 
0.5779306 0.5813581 0.5846617 0.5878828 0.5910251 0.5940339 0.5968425 0.5994635 
0.6019166 0.6041961 0.6062559 0.6080220 0.6094970 0.6106368 0.6114543 0.6120161 
0.6122724 0.6122158 
380.2245     138.7157     823.8604     268.9235     
Sample4  0.3239838 0.3441430 0.3633510 0.3817125 0.3994688 0.4165404 0.4325117 0.4469224 
0.4602037 0.4729883 0.4849608 0.4956276 0.5054096 0.5148979 0.5237566 0.5317601 
0.5389398 0.5451347 0.5502701 0.5543705 0.5576632 0.5602018 0.5619723 0.5628394 
0.5626081 0.5618932 0.5609696 0.5595658 0.5576304 0.5555894 0.5537920 0.5519266 
0.5495954 0.5469946 0.5444130 0.5417223 0.5385960 0.5350909 0.5315555 0.5278118 
0.5236199 0.5191923 0.5147867 0.5101583 0.5051460 0.4999914 0.4946471 0.4891690 
0.4840569 0.4795290 0.4750511 0.4704134 0.4656948 0.4609051 0.4562797 0.4521807 
0.4484129 0.4447404 0.4413590 0.4384515 0.4362966 0.4357144 0.4367045 0.4384364 
0.4407989 0.4436623 0.4470520 0.4510217 0.4553236 0.4594203 0.4632751 0.4670506 
0.4705010 0.4735906 0.4764658 0.4790066 0.4811385 0.4831851 0.4852014 0.4871684 
0.4893140 0.4917926 0.4944304 0.4973117 0.5005971 0.5041181 0.5078624 0.5118642 
0.5161234 0.5206033 0.5253051 0.5303206 0.5354506 0.5407681 0.5464483 0.5523608 
0.5583372 0.5643827 0.5706666 0.5769493 0.5828949 0.5884547 0.5936993 0.5985989 
0.6030825 0.6069923 0.6101138 0.6125538 0.6142504 0.6153626 0.6161437 0.6170440 
0.6184001 0.6207573 0.6241765 0.6288158 0.6345010 0.6410667 0.6486194 0.6567411 
0.6654095 0.6745176 0.6840086 0.6937374 0.7034571 0.7131604 0.7226647 0.7319877 
0.7412116 0.7502444 0.7588459 0.7667797 0.7737291 0.7795299 0.7840211 0.7867439 
0.7876696 0.7858188 0.7811874 0.7735307 0.7626461 0.7491238 0.7323613 0.7137847 
0.6934316 0.6721382 0.6503693 0.6278324 0.6051361 0.5817850 0.5582163 0.5344182 
0.5104429 0.4866307 0.4630112 0.4400471 0.4179223 0.3968751 0.3770133 0.3583741 
0.3409489 0.3247052 0.3096019 0.2955741 0.2825472 0.2704633 0.2593175 0.2490384 
0.2396238 0.2310535 0.2232917 0.2162987 0.2100144 0.2043870 0.1992860 0.1946681 
0.1904228 0.1864597 0.1826985 0.1790708 0.1755027 0.1719876 0.1685193 0.1651036 
0.1617541 0.1585002 0.1553786 0.1523951 0.1495571 0.1468832 0.1443785 0.1420312 
0.1398346 0.1377695 0.1358179 0.1339572 0.1321900 0.1305242 0.1289581 0.1274886 
0.1260977 0.1247828 0.1235208 0.1222927 0.1211014 0.1199311 0.1187690 0.1176074 
0.1164520 0.1153008 0.1141567 0.1130197 0.1118818 0.1107456 0.1096212 0.1085028 
0.1073795 0.1062729 0.1051887 0.1041210 0.1030703 0.1020363 0.1010248 0.1000306 
0.0990532 0.0980938 0.0971588 0.0962475 0.0953564 0.0944930 0.0936507 0.0928363 
0.0920445 0.0912721 0.0905239 0.0897989 0.0890985 0.0884174 0.0877503 0.0870939 
0.0864524 0.0858316 0.0852270 0.0846317 0.0840461 0.0834625 0.0828856 0.0823180 
0.0817541 0.0811860 0.0806160 0.0800475 0.0794765 0.0789105 0.0783452 0.0777828 
0.0772120 0.0766343 0.0760537 0.0754744 0.0749005 0.0743243 0.0737575 0.0731988 
0.0726470 0.0721029 0.0715670 0.0710217 0.0704627 0.0699158 0.0693966 0.0688981 
0.0684197 0.0679615 0.0675244 0.0671052 0.0667109 0.0663487 0.0660144 0.0657067 
0.0654244 0.0651762 0.0649556 0.0647643 0.0645953 0.0644499 0.0643257 0.0642148 
0.0641071 0.0640038 0.0639010 0.0637847 0.0636530 0.0635078 0.0633461 0.0631685 
0.0629751 0.0627700 0.0625553 0.0623367 0.0621092 0.0618703 0.0616384 0.0614306 
0.0612253 0.0609958 0.0607500 0.0605062 0.0602608 0.0600092 0.0597625 0.0595169 
0.0592770 0.0590421 0.0588156 0.0585904 0.0583717 0.0581630 0.0579625 0.0577639 
0.0575726 0.0573917 0.0572199 0.0570648 0.0569148 0.0567708 0.0566361 0.0565109 
0.0563815 0.0562567 0.0561439 0.0560371 0.0559339 0.0558467 0.0557746 0.0557060 
0.0556462 0.0555936 0.0555541 0.0555292 0.0555211 0.0555185 0.0555245 0.0555380 
0.0555659 0.0556113 0.0556740 0.0557427 0.0558158 0.0559053 0.0531637 0.0532806 
0.0534312 0.0535940 0.0537687 0.0539682 0.0541889 0.0544310 0.0547002 0.0550062 
0.0553432 0.0557302 0.0561725 0.0566833 0.0572513 0.0578939 0.0586043 0.0593800 
0.0602083 0.0610835 0.0619991 0.0629579 0.0639551 0.0649842 0.0660497 0.0671559 
0.0683123 0.0695063 0.0707350 0.0719832 0.0732324 0.0744639 0.0756662 0.0768393 
0.0779735 0.0790842 0.0801899 0.0812941 0.0824094 0.0835409 0.0846695 0.0857654 
0.0868003 0.0877632 0.0886333 0.0893979 0.0900507 0.0906054 0.0910777 0.0914760 
0.0918143 0.0920971 0.0923262 0.0924907 0.0925914 0.0926124 0.0925524 0.0923980 
0.0921708 0.0918729 0.0915246 0.0911370 0.0907371 0.0903414 0.0899632 0.0896161 
0.0892945 0.0890041 0.0887439 0.0885145 0.0882980 0.0881052 0.0879386 0.0878000 
0.0876821 0.0875930 0.0875290 0.0874965 0.0874901 0.0875138 0.0875581 0.0876294 
0.0877178 0.0878136 0.0879102 0.0880047 0.0880882 0.0881473 0.0881819 0.0881933 
0.0881889 0.0881667 0.0881364 0.0881039 0.0880763 0.0880633 0.0880641 0.0880873 
0.0881332 0.0882152 0.0883265 0.0884681 0.0886415 0.0888581 0.0891095 0.0894019 
0.0897304 0.0901109 0.0905397 0.0910163 0.0915364 0.0921210 0.0927692 0.0934842 
0.0942596 0.0951111 0.0960326 0.0970236 0.0980809 0.0992089 0.1004029 0.1016640 
0.1029931 0.1043813 0.1058266 0.1073214 0.1088505 0.1104031 0.1119654 0.1135203 
0.1150352 0.1165021 0.1179008 0.1192329 0.1204674 0.1216293 0.1227148 0.1237585 
0.1247918 0.1258623 0.1270144 0.1282762 0.1296799 0.1312348 0.1329607 0.1348594 
0.1369373 0.1392109 0.1416874 0.1444020 0.1473545 0.1505835 0.1540492 0.1577719 
0.1616794 0.1657612 0.1699443 0.1742030 0.1784958 0.1827789 0.1870080 0.1911469 
0.1951583 0.1990101 0.2026652 0.2061188 0.2093093 0.2122618 0.2149252 0.2173664 
0.2195435 0.2215154 0.2232731 0.2248513 0.2262621 0.2275399 0.2287026 0.2297563 
0.2307218 0.2315953 0.2323948 0.2331109 0.2337551 0.2343072 0.2347787 0.2351609 
0.2354560 0.2356691 0.2358052 0.2358736 0.2358820 0.2358519 0.2357754 0.2356609 
0.2355061 0.2353117 0.2350688 0.2347796 0.2344470 0.2340669 0.2336402 0.2331792 
0.2327037 0.2321982 0.2316368 0.2310295 0.2304047 0.2297730 0.2291382 0.2285017 
0.2278771 0.2272730 0.2266936 0.2261499 0.2256474 0.2251847 0.2247510 0.2243323 
0.2239453 0.2236129 0.2233105 0.2230304 0.2227659 0.2225082 0.2222611 0.2220311 
0.2218327 0.2216634 0.2215165 0.2213984 0.2213137 0.2212486 0.2211906 0.2211415 
0.2210919 0.2210251 0.2209284 0.2207958 0.2206206 0.2204040 0.2201311 0.2198078 
0.2194191 0.2189609 0.2184450 0.2178631 0.2172222 0.2165183 0.2157645 0.2149663 
0.2141376 0.2132826 0.2123970 0.2114979 0.2105944 0.2096840 0.2087760 0.2078795 
0.2069953 0.2061316 0.2052854 0.2044501 0.2036219 0.2028046 0.2020056 0.2012249 
0.2004617 0.1997161 0.1989895 0.1982992 0.1976487 0.1970371 0.1964637 0.1959348 
0.1954728 0.1950794 0.1947741 0.1945690 0.1944668 0.1944867 0.1946037 0.1948081 
0.1950889 0.1954395 0.1958715 0.1963880 0.1970041 0.1977346 0.1985843 0.1995716 
0.2006794 0.2019215 0.2032847 0.2047188 0.2061584 0.2075453 0.2088407 0.2100195 
0.2111043 0.2121005 0.2130219 0.2138697 0.2146249 0.2153082 0.2159268 0.2165038 
0.2170622 0.2176118 0.2181569 0.2186991 0.2192357 0.2197676 0.2202896 0.2207640 
0.2211327 0.2212942 0.2212525 0.2210148 0.2206450 0.2202442 0.2198818 0.2195940 
0.2193806 0.2192327 0.2191270 0.2190587 0.2190245 0.2190123 0.2190071 0.2189970 
0.2189658 0.2188598 0.2186465 0.2183235 0.2178887 0.2173981 0.2168797 0.2163616 
0.2158734 0.2154141 0.2149735 0.2145500 0.2141315 0.2137124 0.2132954 0.2128661 
0.2124149 0.2119396 0.2114416 0.2109343 0.2104256 0.2099122 0.2094017 0.2089150 
0.2084571 0.2080205 0.2076066 0.2072046 0.2068013 0.2063898 0.2059594 0.2055084 
0.2050351 0.2045362 0.2040174 0.2034768 0.2029144 0.2023436 0.2017717 0.2011974 
0.2006299 0.2000818 0.1995769 0.1991364 0.1987734 0.1985057 0.1983435 0.1982938 
0.1983573 0.1985361 0.1988460 0.1992979 0.1998949 0.2006690 0.2016631 0.2029009 
0.2044165 0.2062391 0.2083617 0.2108307 0.2137538 0.2171565 0.2211047 0.2257103 
0.2309604 0.2368656 0.2434417 0.2506195 0.2583417 0.2665604 0.2751928 0.2840755 
0.2929707 0.3016323 0.3099656 0.3178863 0.3252484 0.3320904 0.3383895 0.3440598 
0.3491122 0.3535632 0.3573880 0.3605573 0.3631497 0.3651907 0.3666393 0.3675838 
0.3680558 0.3680561 0.3676291 0.3668433 0.3657479 0.3643746 0.3627885 0.3610125 
0.3590902 0.3570736 0.3549834 0.3528402 0.3506646 0.3484826 0.3463089 0.3441435 
0.3419842 0.3398294 0.3376685 0.3355026 0.3333440 0.3311880 0.3290320 0.3268924 
0.3247761 0.3227025 0.3206830 0.3187249 0.3168486 0.3150631 0.3133894 0.3118419 
0.3104366 0.3091973 0.3081470 0.3072816 0.3065959 0.3061178 0.3058884 0.3058814 
0.3060979 0.3065546 0.3072954 0.3082995 0.3095595 0.3110733 0.3128550 0.3148697 
0.3171027 0.3195569 0.3222164 0.3250309 0.3279875 0.3310593 0.3342038 0.3373726 
0.3405251 0.3436007 0.3465354 0.3492931 0.3518525 0.3541958 0.3563190 0.3582361 
0.3599917 0.3616174 0.3631268 0.3645244 0.3658355 0.3670742 0.3682499 0.3693413 
0.3703456 0.3712809 0.3721468 0.3729542 0.3737217 0.3744399 0.3751073 0.3757305 
0.3763140 0.3768544 0.3773428 0.3777798 0.3781628 0.3784746 0.3787130 0.3788769 
0.3789700 0.3790011 0.3789815 0.3789057 0.3787555 0.3785344 0.3782785 0.3780067 
0.3777088 0.3773959 0.3770688 0.3767327 0.3763838 0.3760074 0.3755902 0.3751076 
0.3745514 0.3739565 0.3733600 0.3727606 0.3721772 0.3716091 0.3710431 0.3704787 
0.3699008 0.3692710 0.3685748 0.3678170 0.3669992 0.3661089 0.3651486 0.3641386 
0.3630883 0.3620099 0.3608910 0.3597285 0.3585290 0.3572953 0.3560440 0.3547919 
0.3535505 0.3523367 0.3511755 0.3500709 0.3490073 0.3479936 0.3470335 0.3461265 
0.3452677 0.3444377 0.3436708 0.3430017 0.3424242 0.3419564 0.3416331 0.3414787 
0.3415294 0.3418233 0.3423807 0.3432272 0.3443860 0.3458712 0.3477050 0.3498799 
0.3523979 0.3552505 0.3583984 0.3618026 0.3654302 0.3692479 0.3732243 0.3773115 
0.3814624 0.3856565 0.3898667 0.3940447 0.3981429 0.4020863 0.4058314 0.4092717 
0.4123036 0.4148971 0.4170360 0.4187326 0.4199817 0.4208385 0.4214210 0.4218181 
0.4221106 0.4223942 0.4227501 0.4232851 0.4240763 0.4251015 0.4263327 0.4277397 
0.4292698 0.4308966 0.4325453 0.4339964 0.4349582 0.4353215 0.4351687 0.4347404 
0.4343448 0.4341148 0.4340762 0.4342029 0.4344342 0.4347239 0.4350201 0.4353563 
0.4357630 0.4362043 0.4366365 0.4370591 0.4375020 0.4379345 0.4381997 0.4381749 
0.4378099 0.4371795 0.4364119 0.4356170 0.4349214 0.4344111 0.4340442 0.4337744 
0.4335523 0.4333484 0.4331844 0.4330751 0.4330426 0.4330548 0.4331310 0.4332663 
0.4334355 0.4336990 0.4340254 0.4343736 0.4347492 0.4351471 0.4356375 0.4362522 
0.4370281 0.4379610 0.4390217 0.4402150 0.4415376 0.4429491 0.4444314 0.4460340 
0.4477568 0.4495810 0.4515071 0.4535333 0.4557053 0.4579897 0.4603508 0.4628588 
0.4655406 0.4683370 0.4712436 0.4742352 0.4773020 0.4804594 0.4836304 0.4867443 
0.4898956 0.4930956 0.4962862 0.4994938 0.5027189 0.5059589 0.5092018 0.5123924 
0.5155253 0.5185353 0.5213761 0.5241123 0.5267274 0.5292695 0.5316923 0.5339778 
0.5360983 0.5380085 0.5397115 0.5411984 0.5424324 0.5434191 0.5440502 0.5444472 
0.5446985 0.5447406 
394.7473     165.1635     833.8182     257.1016     
Sample5  0.3337804 0.3522822 0.3701614 0.3874808 0.4042591 0.4202421 0.4349504 0.4479752 
0.4599079 0.4714853 0.4822936 0.4916732 0.5001217 0.5082947 0.5158511 0.5224756 
0.5281740 0.5328340 0.5364487 0.5391558 0.5413296 0.5430221 0.5441221 0.5444264 
0.5437201 0.5425560 0.5411782 0.5393419 0.5370482 0.5347209 0.5326464 0.5304644 
0.5277841 0.5248066 0.5217739 0.5185611 0.5149144 0.5109375 0.5069445 0.5028017 
0.4982376 0.4934544 0.4888089 0.4841063 0.4791344 0.4741116 0.4690441 0.4640497 
0.4596817 0.4561430 0.4527842 0.4493908 0.4460226 0.4426472 0.4394769 0.4368308 
0.4344873 0.4321696 0.4300362 0.4282520 0.4271089 0.4274313 0.4292050 0.4316244 
0.4345912 0.4379765 0.4417834 0.4460409 0.4504918 0.4545737 0.4582526 0.4617115 
0.4646955 0.4672167 0.4694592 0.4713407 0.4728113 0.4742134 0.4756225 0.4769896 
0.4784836 0.4802279 0.4820519 0.4840487 0.4863730 0.4888614 0.4915041 0.4943445 
0.4974280 0.5007471 0.5043567 0.5083499 0.5125210 0.5169568 0.5218123 0.5269532 
0.5322177 0.5375921 0.5432601 0.5489392 0.5542921 0.5592453 0.5638381 0.5680098 
0.5716654 0.5746406 0.5767342 0.5780823 0.5786094 0.5785265 0.5781507 0.5779476 
0.5782727 0.5796941 0.5822650 0.5860822 0.5909318 0.5965995 0.6031557 0.6101612 
0.6175974 0.6254045 0.6335931 0.6420974 0.6507261 0.6595179 0.6683047 0.6770896 
0.6859009 0.6945700 0.7027858 0.7102527 0.7166129 0.7216648 0.7251821 0.7266812 
0.7261361 0.7225738 0.7160572 0.7064521 0.6937314 0.6786607 0.6607404 0.6413978 
0.6206237 0.5991778 0.5775224 0.5554516 0.5337170 0.5119805 0.4908343 0.4703687 
0.4506611 0.4319575 0.4141590 0.3975222 0.3819993 0.3676456 0.3544051 0.3421707 
0.3308470 0.3203458 0.3105812 0.3014793 0.2929754 0.2850192 0.2776190 0.2707141 
0.2643269 0.2584490 0.2530431 0.2481169 0.2435981 0.2394808 0.2356581 0.2321048 
0.2287517 0.2255366 0.2224196 0.2193634 0.2163167 0.2132984 0.2103036 0.2073498 
0.2044360 0.2015963 0.1988447 0.1961954 0.1936351 0.1911753 0.1888167 0.1865535 
0.1843758 0.1822732 0.1802366 0.1782601 0.1763519 0.1745156 0.1727553 0.1710831 
0.1694910 0.1679696 0.1664903 0.1650428 0.1636231 0.1622215 0.1608317 0.1594560 
0.1580924 0.1567365 0.1553956 0.1540714 0.1527510 0.1514358 0.1501393 0.1488537 
0.1475727 0.1463013 0.1450523 0.1438215 0.1426079 0.1414076 0.1402200 0.1390502 
0.1378937 0.1367591 0.1356466 0.1345496 0.1334646 0.1323974 0.1313476 0.1303175 
0.1293053 0.1283155 0.1273429 0.1263811 0.1254310 0.1245002 0.1235823 0.1226731 
0.1217798 0.1209053 0.1200427 0.1191882 0.1183366 0.1174893 0.1166525 0.1158265 
0.1150052 0.1141840 0.1133680 0.1125585 0.1117506 0.1109509 0.1101570 0.1093710 
0.1085828 0.1077943 0.1070110 0.1062341 0.1054622 0.1046925 0.1039374 0.1031961 
0.1024610 0.1017365 0.1010234 0.1003015 0.0995655 0.0988399 0.0981431 0.0974673 
0.0968045 0.0961618 0.0955376 0.0949288 0.0943413 0.0937802 0.0932398 0.0927209 
0.0922221 0.0917509 0.0913047 0.0908837 0.0904814 0.0901025 0.0897407 0.0893917 
0.0890506 0.0887162 0.0883870 0.0880538 0.0877084 0.0873521 0.0869886 0.0866180 
0.0862383 0.0858589 0.0854749 0.0850859 0.0846953 0.0843019 0.0839158 0.0835564 
0.0832014 0.0828227 0.0824348 0.0820530 0.0816730 0.0812923 0.0809171 0.0805482 
0.0801880 0.0798392 0.0795023 0.0791689 0.0788423 0.0785254 0.0782150 0.0779109 
0.0776127 0.0773243 0.0770456 0.0767843 0.0765274 0.0762768 0.0760393 0.0758158 
0.0755899 0.0753705 0.0751664 0.0749667 0.0747681 0.0745852 0.0744194 0.0742591 
0.0741082 0.0739690 0.0738406 0.0737220 0.0736217 0.0735296 0.0734425 0.0733627 
0.0732989 0.0732526 0.0732179 0.0731830 0.0731549 0.0731682 0.0701908 0.0702337 
0.0702819 0.0703396 0.0704162 0.0705125 0.0706159 0.0707372 0.0708841 0.0710593 
0.0712631 0.0715156 0.0718118 0.0721645 0.0725664 0.0730250 0.0735288 0.0740799 
0.0746695 0.0753007 0.0759685 0.0766696 0.0774102 0.0781922 0.0790175 0.0798850 
0.0808009 0.0817532 0.0827380 0.0837387 0.0847415 0.0857321 0.0866986 0.0876395 
0.0885503 0.0894417 0.0903285 0.0912235 0.0921297 0.0930503 0.0939791 0.0948914 
0.0957586 0.0965694 0.0973091 0.0979686 0.0985410 0.0990392 0.0994743 0.0998503 
0.1001800 0.1004642 0.1007033 0.1008892 0.1010140 0.1010622 0.1010382 0.1009179 
0.1007096 0.1004247 0.1000827 0.0996877 0.0992746 0.0988623 0.0984615 0.0980890 
0.0977432 0.0974245 0.0971261 0.0968548 0.0966025 0.0963769 0.0961784 0.0960111 
0.0958574 0.0957216 0.0956094 0.0955312 0.0954747 0.0954435 0.0954317 0.0954421 
0.0954675 0.0955006 0.0955370 0.0955709 0.0955950 0.0955980 0.0955793 0.0955386 
0.0954864 0.0954261 0.0953579 0.0952859 0.0952228 0.0951726 0.0951368 0.0951224 
0.0951269 0.0951647 0.0952282 0.0953233 0.0954489 0.0956085 0.0957982 0.0960284 
0.0962932 0.0966115 0.0969811 0.0973986 0.0978584 0.0983810 0.0989681 0.0996175 
0.1003222 0.1011023 0.1019578 0.1028837 0.1038702 0.1049233 0.1060430 0.1072314 
0.1084849 0.1097983 0.1111665 0.1125816 0.1140362 0.1155163 0.1170076 0.1185002 
0.1199592 0.1213718 0.1227157 0.1239917 0.1251653 0.1262527 0.1272534 0.1282202 
0.1291901 0.1301992 0.1312906 0.1325030 0.1338759 0.1354135 0.1371245 0.1390067 
0.1410683 0.1433198 0.1457663 0.1484495 0.1513727 0.1545757 0.1580233 0.1617343 
0.1656257 0.1696903 0.1738656 0.1781166 0.1823930 0.1866518 0.1908500 0.1949542 
0.1989221 0.2027154 0.2062943 0.2096597 0.2127581 0.2156174 0.2181882 0.2205381 
0.2226262 0.2245105 0.2261802 0.2276758 0.2290146 0.2302297 0.2313318 0.2323267 
0.2332436 0.2340817 0.2348506 0.2355301 0.2361382 0.2366606 0.2371053 0.2374554 
0.2377138 0.2378951 0.2380052 0.2380473 0.2380233 0.2379525 0.2378307 0.2376700 
0.2374643 0.2372157 0.2369220 0.2365814 0.2361934 0.2357584 0.2352782 0.2347614 
0.2342314 0.2336699 0.2330401 0.2323623 0.2316723 0.2309757 0.2302735 0.2295748 
0.2288982 0.2282509 0.2276350 0.2270604 0.2265374 0.2260611 0.2256155 0.2251894 
0.2248040 0.2244810 0.2241885 0.2239096 0.2236439 0.2233938 0.2231572 0.2229294 
0.2227200 0.2225335 0.2223643 0.2222160 0.2221002 0.2220055 0.2219165 0.2218378 
0.2217618 0.2216752 0.2215688 0.2214326 0.2212572 0.2210422 0.2207738 0.2204536 
0.2200612 0.2195964 0.2190712 0.2184788 0.2178246 0.2171071 0.2163416 0.2155382 
0.2147075 0.2138527 0.2129715 0.2120779 0.2111837 0.2102970 0.2094147 0.2085392 
0.2076769 0.2068403 0.2060272 0.2052268 0.2044408 0.2036695 0.2029162 0.2021821 
0.2014734 0.2007871 0.2001225 0.1994947 0.1989075 0.1983706 0.1978815 0.1974427 
0.1970670 0.1967646 0.1965659 0.1964744 0.1964854 0.1966143 0.1968341 0.1971307 
0.1974818 0.1978821 0.1983400 0.1988534 0.1994462 0.2001332 0.2009201 0.2018378 
0.2028683 0.2040241 0.2052941 0.2066311 0.2079787 0.2092868 0.2105244 0.2116653 
0.2127283 0.2137268 0.2146823 0.2155868 0.2164095 0.2171700 0.2178905 0.2185921 
0.2192876 0.2199956 0.2207193 0.2214363 0.2221418 0.2228401 0.2235079 0.2240901 
0.2245125 0.2246507 0.2244963 0.2240764 0.2234959 0.2228925 0.2223596 0.2219357 
0.2216212 0.2214140 0.2212901 0.2212376 0.2212465 0.2213043 0.2213981 0.2215060 
0.2215874 0.2215790 0.2214415 0.2211617 0.2207356 0.2202300 0.2196974 0.2191762 
0.2186888 0.2182407 0.2178243 0.2174367 0.2170710 0.2167062 0.2163373 0.2159611 
0.2155674 0.2151574 0.2147317 0.2142926 0.2138415 0.2133860 0.2129378 0.2125068 
0.2120954 0.2117004 0.2113238 0.2109531 0.2105801 0.2102005 0.2097966 0.2093644 
0.2089085 0.2084297 0.2079315 0.2074158 0.2068855 0.2063414 0.2057831 0.2052220 
0.2046722 0.2041391 0.2036372 0.2031931 0.2028284 0.2025570 0.2023867 0.2023358 
0.2024035 0.2025796 0.2028858 0.2033371 0.2039312 0.2047067 0.2057080 0.2069444 
0.2084491 0.2102694 0.2124122 0.2149255 0.2179010 0.2213647 0.2253939 0.2301007 
0.2354777 0.2415405 0.2482959 0.2556757 0.2636255 0.2720867 0.2809636 0.2900735 
0.2991529 0.3079516 0.3163820 0.3243551 0.3317177 0.3384999 0.3446823 0.3502008 
0.3550696 0.3593037 0.3628840 0.3657760 0.3680517 0.3697598 0.3708767 0.3714831 
0.3716085 0.3712696 0.3705295 0.3694475 0.3680658 0.3664215 0.3645858 0.3625891 
0.3604647 0.3582613 0.3560103 0.3537364 0.3514465 0.3491485 0.3468704 0.3446206 
0.3423814 0.3401468 0.3379230 0.3357044 0.3334946 0.3312894 0.3290956 0.3269323 
0.3248031 0.3227212 0.3206992 0.3187447 0.3168800 0.3151126 0.3134628 0.3119573 
0.3105963 0.3093917 0.3083784 0.3075495 0.3069133 0.3064860 0.3062941 0.3063290 
0.3065928 0.3070939 0.3078826 0.3089367 0.3102455 0.3117947 0.3135929 0.3156187 
0.3178552 0.3202890 0.3229050 0.3256715 0.3285652 0.3315537 0.3346194 0.3377287 
0.3408287 0.3438670 0.3467965 0.3495910 0.3522231 0.3546711 0.3569341 0.3590239 
0.3609740 0.3628003 0.3645120 0.3661117 0.3676175 0.3690360 0.3703515 0.3715480 
0.3726328 0.3736320 0.3745611 0.3754327 0.3762491 0.3770043 0.3777280 0.3784282 
0.3790787 0.3796763 0.3802170 0.3806837 0.3810835 0.3814204 0.3816852 0.3818898 
0.3820234 0.3820723 0.3820415 0.3819403 0.3817720 0.3815234 0.3812209 0.3808953 
0.3805398 0.3801638 0.3797616 0.3793426 0.3788951 0.3784022 0.3778535 0.3772228 
0.3765183 0.3757821 0.3750468 0.3743060 0.3735755 0.3728838 0.3722054 0.3714999 
0.3707645 0.3699916 0.3691717 0.3682935 0.3673649 0.3663988 0.3653904 0.3643612 
0.3633347 0.3622909 0.3612054 0.3601016 0.3589852 0.3578399 0.3566742 0.3555225 
0.3543957 0.3533011 0.3522500 0.3512525 0.3503101 0.3494046 0.3485437 0.3477474 
0.3470050 0.3463251 0.3457149 0.3452032 0.3448112 0.3445596 0.3444599 0.3445271 
0.3448079 0.3453404 0.3461474 0.3472470 0.3486727 0.3504566 0.3526029 0.3550792 
0.3578917 0.3610382 0.3644628 0.3680761 0.3718366 0.3757094 0.3796525 0.3836328 
0.3876369 0.3916471 0.3956363 0.3996074 0.4035064 0.4072643 0.4108793 0.4142350 
0.4171993 0.4197199 0.4217641 0.4233469 0.4244933 0.4252806 0.4258262 0.4261915 
0.4264534 0.4267536 0.4272632 0.4280544 0.4291216 0.4304633 0.4320723 0.4339128 
0.4359189 0.4380360 0.4402005 0.4421630 0.4435408 0.4441453 0.4440158 0.4433798 
0.4426572 0.4421827 0.4420402 0.4421246 0.4423468 0.4427220 0.4431807 0.4436347 
0.4440792 0.4445204 0.4449928 0.4455283 0.4460964 0.4466764 0.4471805 0.4473869 
0.4471797 0.4466045 0.4457540 0.4448089 0.4439785 0.4433521 0.4429064 0.4426004 
0.4423985 0.4422646 0.4421830 0.4421098 0.4421024 0.4422119 0.4424264 0.4426838 
0.4429415 0.4432298 0.4435022 0.4437677 0.4440576 0.4443793 0.4447817 0.4452884 
0.4458918 0.4466808 0.4476800 0.4488403 0.4501261 0.4515046 0.4529477 0.4544396 
0.4560315 0.4577726 0.4596620 0.4616880 0.4638505 0.4661686 0.4686233 0.4712105 
0.4739884 0.4769168 0.4799107 0.4830002 0.4862075 0.4894707 0.4926812 0.4958760 
0.4991193 0.5023875 0.5056661 0.5090259 0.5124062 0.5158085 0.5192184 0.5224841 
0.5256649 0.5287926 0.5318522 0.5348256 0.5376633 0.5404166 0.5430305 0.5454645 
0.5477306 0.5498421 0.5517246 0.5533422 0.5546651 0.5556970 0.5564566 0.5569373 
0.5571008 0.5570291 
415.8847     136.7583     778.4680     176.7605
